# = NCSU%PMD ==================================================================
#   << anchor(1) : position = 6.000000, strength = 10.000000 >>
# -----------------------------------------------------------------------------
# MD time (ps), CV(1:1)
# =============================================================================
      0.0000       6.23156821
      0.0020       6.23479406
      0.0040       6.23801635
      0.0060       6.24134289
      0.0080       6.24466137
      0.0100       6.24812202
      0.0120       6.25160060
      0.0140       6.25506397
      0.0160       6.25830225
      0.0180       6.26113713
      0.0200       6.26316209
      0.0220       6.26429282
      0.0240       6.26448328
      0.0260       6.26382170
      0.0280       6.26285387
      0.0300       6.26201930
      0.0320       6.26149058
      0.0340       6.26153532
      0.0360       6.26197967
      0.0380       6.26250350
      0.0400       6.26321764
      0.0420       6.26406391
      0.0440       6.26515233
      0.0460       6.26655847
      0.0480       6.26819027
      0.0500       6.27012332
      0.0520       6.27208489
      0.0540       6.27413163
      0.0560       6.27584069
      0.0580       6.27701105
      0.0600       6.27749787
      0.0620       6.27729632
      0.0640       6.27659498
      0.0660       6.27553641
      0.0680       6.27449755
      0.0700       6.27351616
      0.0720       6.27292171
      0.0740       6.27281665
      0.0760       6.27288281
      0.0780       6.27323272
      0.0800       6.27384285
      0.0820       6.27441538
      0.0840       6.27470924
      0.0860       6.27463414
      0.0880       6.27426291
      0.0900       6.27346209
      0.0920       6.27235957
      0.0940       6.27096097
      0.0960       6.26965119
      0.0980       6.26858416
