#
# MD time (ps), CV #1
#
      0.0000     6.2315682062
      0.0020     6.2348041228
      0.0040     6.2380460316
      0.0060     6.2414007574
      0.0080     6.2447548403
      0.0100     6.2482574515
      0.0120     6.2517835908
      0.0140     6.2552997750
      0.0160     6.2585960841
      0.0180     6.2614942717
      0.0200     6.2635878508
      0.0220     6.2647923482
      0.0240     6.2650613478
      0.0260     6.2644825051
      0.0280     6.2636010790
      0.0300     6.2628562317
      0.0320     6.2624202645
      0.0340     6.2625606845
      0.0360     6.2631034918
      0.0380     6.2637283818
      0.0400     6.2645459504
      0.0420     6.2654976721
      0.0440     6.2666933149
      0.0460     6.2682081944
      0.0480     6.2699501078
      0.0500     6.2719947383
      0.0520     6.2740694015
      0.0540     6.2762307978
      0.0560     6.2780562080
      0.0580     6.2793445941
      0.0600     6.2799508999
      0.0620     6.2798700781
      0.0640     6.2792905296
      0.0660     6.2783548065
      0.0680     6.2774400603
      0.0700     6.2765834551
      0.0720     6.2761139721
      0.0740     6.2761342861
      0.0760     6.2763261260
      0.0780     6.2768016279
      0.0800     6.2775359498
      0.0820     6.2782307769
      0.0840     6.2786450308
      0.0860     6.2786894051
      0.0880     6.2784378792
      0.0900     6.2777582909
      0.0920     6.2767793627
      0.0940     6.2755072736
      0.0960     6.2743263900
      0.0980     6.2733885126
