#
# MD time (ps), CV, handle_position, spring_constant, work
#
      0.0000       6.23156821       6.23156821       0.00000000       0.00000000
      0.0020       6.23480412       6.23011003       0.47104000       0.00000680
      0.0040       6.23804602       6.22581432       1.72032000       0.00015020
      0.0060       6.24140065       6.21879931       3.50208000       0.00095671
      0.0080       6.24475429       6.20918322       5.57056000       0.00359862
      0.0100       6.24825564       6.19708430       7.68000000       0.00993653
      0.0120       6.25177892       6.18262076       9.58464000       0.02212701
      0.0140       6.25528963       6.16591084      11.20000000       0.04248102
      0.0160       6.25857665       6.14707277      12.80000000       0.07529968
      0.0180       6.26146030       6.12622479      14.40000000       0.12510783
      0.0200       6.26353242       6.10348511      16.00000000       0.19685686
      0.0220       6.26470661       6.07897198      17.60000000       0.29590668
      0.0240       6.26493433       6.05280362      19.20000000       0.42796818
      0.0260       6.26430087       6.02509826      20.80000000       0.59908602
      0.0280       6.26334888       5.99597413      22.40000000       0.81594474
      0.0300       6.26251465       5.96554947      24.00000000       1.08602577
      0.0320       6.26196729       5.93394251      25.60000000       1.41744872
      0.0340       6.26197090       5.90127147      27.20000000       1.81897665
      0.0360       6.26234778       5.86765458      28.80000000       2.29957520
      0.0380       6.26277376       5.83321008      30.40000000       2.86786412
      0.0400       6.26335548       5.79805620      32.00000000       3.53231272
      0.0420       6.26403036       5.76231116      33.60000000       4.30109539
      0.0440       6.26490401       5.72609320      35.20000000       5.18208341
      0.0460       6.26604731       5.68952055      36.80000000       6.18277693
      0.0480       6.26736341       5.65271144      38.40000000       7.30988500
      0.0500       6.26892291       5.61578410      40.00000000       8.56932212
      0.0520       6.27044767       5.57885676      41.70752000       9.99262350
      0.0540       6.27198834       5.54204765      43.54816000      11.59888945
      0.0560       6.27311567       5.50547500      45.39904000      13.36278455
      0.0580       6.27362196       5.46925704      47.13728000      15.24282068
      0.0600       6.27335622       5.43351201      48.64000000      17.18052320
      0.0620       6.27230883       5.39835813      49.78432000      19.10030752
      0.0640       6.27066548       5.36391363      50.46464000      20.91738159
      0.0660       6.26856799       5.33029674      50.72576000      22.60144624
      0.0680       6.26639435       5.29762570      50.68992000      24.16429463
      0.0700       6.26418457       5.26601873      50.48000000      25.63207449
      0.0720       6.26227126       5.23559407      50.21888000      27.04529171
      0.0740       6.26076014       5.20646995      50.02944000      28.45889100
      0.0760       6.25933639       5.17876459      50.00000000      29.92081129
      0.0780       6.25811602       5.15259623      50.00000000      31.35097216
      0.0800       6.25708122       5.12808309      50.00000000      32.72034807
      0.0820       6.25593964       5.10534342      50.00000000      34.01627895
      0.0840       6.25445576       5.08449543      50.00000000      35.22575225
      0.0860       6.25254216       5.06565736      50.00000000      36.33571243
      0.0880       6.25027000       5.04894745      50.00000000      37.33338112
      0.0900       6.24749765       5.03448391      50.00000000      38.20637717
      0.0920       6.24434383       5.02238498      50.00000000      38.94289101
      0.0940       6.24080998       5.01276890      50.00000000      39.53187617
      0.0960       6.23728719       5.00575389      50.00000000      39.96322480
      0.0980       6.23394458       5.00145818      50.00000000      40.22784264
#
# <> total work done:    40.2278426428
#
