#
# MD time (ps), CV #1
#
      0.0000     6.2315682062
      0.0020     6.2348038920
      0.0040     6.2380453755
      0.0060     6.2413995273
      0.0080     6.2447529360
      0.0100     6.2482548159
      0.0120     6.2517802009
      0.0140     6.2552956313
      0.0160     6.2585912020
      0.0180     6.2614886760
      0.0200     6.2635815734
      0.0220     6.2647854267
      0.0240     6.2650538241
      0.0260     6.2644744234
      0.0280     6.2635924805
      0.0300     6.2628471506
      0.0320     6.2624107275
      0.0340     6.2625507116
      0.0360     6.2630931003
      0.0380     6.2637175894
      0.0400     6.2645347759
      0.0420     6.2654861383
      0.0440     6.2666814478
      0.0460     6.2681960272
      0.0480     6.2699376818
      0.0500     6.2719821018
      0.0520     6.2740566142
      0.0540     6.2762179286
      0.0560     6.2780433346
      0.0580     6.2793318010
      0.0600     6.2799382757
      0.0620     6.2798577089
      0.0640     6.2792784932
      0.0660     6.2783431672
      0.0680     6.2774288661
      0.0700     6.2765727470
      0.0720     6.2761037836
      0.0740     6.2761246424
      0.0760     6.2763170506
      0.0780     6.2767931450
      0.0800     6.2775280918
      0.0820     6.2782235798
      0.0840     6.2786385292
      0.0860     6.2786836270
      0.0880     6.2784328476
      0.0900     6.2777540257
      0.0920     6.2767758808
      0.0940     6.2755045836
      0.0960     6.2743244880
      0.0980     6.2733873874
