#
# MD time (ps), CV #1, E_{bias} (kcal/mol)
#
      0.0000     6.3326525075     0.0000000000
      0.0020     6.3340046852     0.0031229195
      0.0040     6.3354755922     0.0062646897
      0.0060     6.3370114617     0.0094251812
      0.0080     6.3386150683     0.0126025188
      0.0100     6.3398471835     0.0157739611
      0.0120     6.3409204016     0.0189387264
      0.0140     6.3416759199     0.0220784936
      0.0160     6.3420914443     0.0251815364
      0.0180     6.3421608013     0.0282391973
      0.0200     6.3417450447     0.0312321500
      0.0220     6.3409539677     0.0341649258
      0.0240     6.3396819444     0.0370183238
      0.0260     6.3380511326     0.0397960893
      0.0280     6.3362893906     0.0425213047
      0.0300     6.3346762945     0.0452311372
      0.0320     6.3335310767     0.0479803004
      0.0340     6.3329447339     0.0507965001
      0.0360     6.3331408522     0.0537355727
      0.0380     6.3337488337     0.0567414972
      0.0400     6.3346195441     0.0597945310
      0.0420     6.3354019632     0.0628247935
      0.0440     6.3356702489     0.0657349360
      0.0460     6.3352882527     0.0684800475
      0.0480     6.3340253767     0.0709817369
      0.0500     6.3321110094     0.0732670260
      0.0520     6.3296243227     0.0753283924
      0.0540     6.3270535853     0.0772837103
      0.0560     6.3246551218     0.0792085617
      0.0580     6.3225336668     0.0811471896
      0.0600     6.3210226576     0.0832254294
      0.0620     6.3198925375     0.0853914123
      0.0640     6.3190209585     0.0876201560
      0.0660     6.3180209665     0.0897847257
      0.0680     6.3166023868     0.0917781931
      0.0700     6.3147986197     0.0936009665
      0.0720     6.3126780667     0.0952658770
      0.0740     6.3106250741     0.0969153648
      0.0760     6.3088489236     0.0986361660
      0.0780     6.3076218819     0.1005530226
      0.0800     6.3068551968     0.1026416355
      0.0820     6.3063402407     0.1048211650
      0.0840     6.3060504947     0.1070874613
      0.0860     6.3055107112     0.1092321372
      0.0880     6.3044259529     0.1111171574
      0.0900     6.3028981641     0.1127812804
      0.0920     6.3011283332     0.1143131784
      0.0940     6.2994267478     0.1158624378
      0.0960     6.2981516270     0.1176133086
      0.0980     6.2975361120     0.1196959506
